#T_nd for A4H (pin)
#freq [Hz], T_nd [K]
1190500000, 75.2
1191281250, 71.5
1192062500, 68.9
1192843750, 66.7
1193625000, 65.7
1194406250, 64.4
1195187500, 63.2
1195968750, 62.1
1196750000, 61.2
1197531250, 60.6
1198312500, 60.2
1199093750, 60.2
1199875000, 59.7
1200656250, 59.5
1201437500, 59.4
1202218750, 59.4
1203000000, 59.4
1203781250, 59.4
1204562500, 59.4
1205343750, 59.4
1206125000, 59.4
1206906250, 59.4
1207687500, 59.4
1208468750, 59.4
1209250000, 59.4
1210031250, 59.4
1210812500, 59.4
1211593750, 59.4
1212375000, 59.4
1213156250, 59.2
1213937500, 59.0
1214718750, 58.7
1215500000, 58.7
1216281250, 58.4
1217062500, 58.4
1217843750, 58.2
1218625000, 58.1
1219406250, 58.1
1220187500, 58.1
1220968750, 58.1
1221750000, 58.1
1222531250, 58.1
1223312500, 58.1
1224093750, 58.1
1224875000, 58.1
1225656250, 58.1
1226437500, 58.1
1227218750, 58.1
1228000000, 58.2
1228781250, 58.3
1229562500, 58.9
1230343750, 59.1
1231125000, 59.6
1231906250, 59.6
1232687500, 59.6
1233468750, 59.6
1234250000, 60.0
1235031250, 60.0
1235812500, 60.1
1236593750, 60.1
1237375000, 60.1
1238156250, 60.1
1238937500, 60.6
1239718750, 61.9
1240500000, 61.9
1241281250, 61.9
1242062500, 61.9
1242843750, 61.9
1243625000, 61.9
1244406250, 61.9
1245187500, 61.9
1245968750, 61.7
1246750000, 61.6
1247531250, 61.6
1248312500, 61.5
1249093750, 61.5
1249875000, 61.5
1250656250, 61.5
1251437500, 61.5
1252218750, 61.6
1253000000, 61.6
1253781250, 61.7
1254562500, 61.8
1255343750, 61.8
1256125000, 62.2
1256906250, 62.7
1257687500, 63.0
1258468750, 63.2
1259250000, 64.1
1260031250, 64.1
1260812500, 64.7
1261593750, 65.0
1262375000, 65.6
1263156250, 66.2
1263937500, 66.8
1264718750, 66.8
1265500000, 67.0
1266281250, 67.2
1267062500, 67.3
1267843750, 67.3
1268625000, 67.3
1269406250, 67.3
1270187500, 67.3
1270968750, 67.3
1271750000, 67.3
1272531250, 67.1
1273312500, 66.9
1274093750, 66.8
1274875000, 66.7
1275656250, 66.6
1276437500, 66.3
1277218750, 66.2
1278000000, 66.2
1278781250, 66.2
1279562500, 66.2
1280343750, 66.2
1281125000, 66.2
1281906250, 66.2
1282687500, 66.6
1283468750, 66.9
1284250000, 67.2
1285031250, 67.5
1285812500, 68.2
1286593750, 68.4
1287375000, 69.2
1288156250, 69.4
1288937500, 70.1
1289718750, 70.7
1290500000, 71.2
1291281250, 71.6
1292062500, 72.3
1292843750, 72.4
1293625000, 72.4
1294406250, 72.4
1295187500, 72.4
1295968750, 72.4
1296750000, 72.4
1297531250, 72.4
1298312500, 72.3
1299093750, 71.9
1299875000, 70.4
1300656250, 69.4
1301437500, 68.2
1302218750, 66.9
1303000000, 65.1
1303781250, 63.9
1304562500, 63.0
1305343750, 62.3
1306125000, 62.2
1306906250, 62.2
1307687500, 62.2
1308468750, 62.2
1309250000, 62.2
1310031250, 62.2
1310812500, 62.2
1311593750, 62.8
1312375000, 63.2
1313156250, 63.6
1313937500, 64.0
1314718750, 64.5
1315500000, 64.9
1316281250, 65.7
1317062500, 66.0
1317843750, 66.1
1318625000, 66.6
1319406250, 66.9
1320187500, 66.9
1320968750, 66.9
1321750000, 66.9
1322531250, 66.9
1323312500, 66.9
1324093750, 66.9
1324875000, 66.5
1325656250, 66.2
1326437500, 65.5
1327218750, 64.8
1328000000, 63.8
1328781250, 63.3
1329562500, 62.8
1330343750, 62.5
1331125000, 62.1
1331906250, 61.6
1332687500, 61.1
1333468750, 61.1
1334250000, 60.9
1335031250, 60.8
1335812500, 60.8
1336593750, 60.7
1337375000, 60.7
1338156250, 60.7
1338937500, 60.7
1339718750, 60.7
1340500000, 60.7
1341281250, 60.7
1342062500, 60.8
1342843750, 60.9
1343625000, 61.3
1344406250, 61.6
1345187500, 61.7
1345968750, 61.9
1346750000, 62.0
1347531250, 62.0
1348312500, 62.0
1349093750, 62.0
1349875000, 62.0
1350656250, 62.0
1351437500, 62.0
1352218750, 61.8
1353000000, 61.7
1353781250, 61.3
1354562500, 61.1
1355343750, 60.7
1356125000, 60.1
1356906250, 59.6
1357687500, 59.4
1358468750, 59.0
1359250000, 59.0
1360031250, 58.3
1360812500, 58.1
1361593750, 57.9
1362375000, 57.7
1363156250, 57.3
1363937500, 57.3
1364718750, 57.3
1365500000, 57.3
1366281250, 57.3
1367062500, 57.3
1367843750, 57.3
1368625000, 57.6
1369406250, 57.6
1370187500, 58.0
1370968750, 58.1
1371750000, 58.4
1372531250, 58.7
1373312500, 58.9
1374093750, 59.1
1374875000, 59.2
1375656250, 59.6
1376437500, 59.8
1377218750, 59.8
1378000000, 60.0
1378781250, 60.0
1379562500, 60.0
1380343750, 60.0
1381125000, 60.0
1381906250, 60.0
1382687500, 60.0
1383468750, 60.0
1384250000, 60.0
1385031250, 59.9
1385812500, 59.8
1386593750, 59.6
1387375000, 59.3
1388156250, 59.1
1388937500, 58.9
1389718750, 58.8
1390500000, 58.7
1391281250, 58.6
1392062500, 58.3
1392843750, 58.3
1393625000, 58.2
1394406250, 58.1
1395187500, 57.9
1395968750, 57.8
1396750000, 57.8
1397531250, 57.7
1398312500, 57.6
1399093750, 57.5
1399875000, 57.5
1400656250, 57.5
1401437500, 57.5
1402218750, 57.5
1403000000, 57.5
1403781250, 57.5
1404562500, 57.6
1405343750, 57.6
1406125000, 57.6
1406906250, 57.6
1407687500, 57.6
1408468750, 57.6
1409250000, 57.6
1410031250, 57.6
1410812500, 57.6
1411593750, 57.6
1412375000, 57.5
1413156250, 57.5
1413937500, 57.4
1414718750, 57.4
1415500000, 57.3
1416281250, 57.2
1417062500, 57.2
1417843750, 57.2
1418625000, 57.2
1419406250, 57.2
1420187500, 57.2
1420968750, 57.2
1421750000, 57.2
1422531250, 57.3
1423312500, 57.4
1424093750, 57.7
1424875000, 57.9
1425656250, 58.1
1426437500, 58.2
1427218750, 58.6
1428000000, 58.9
1428781250, 59.0
1429562500, 59.3
1430343750, 59.8
1431125000, 60.1
1431906250, 60.6
1432687500, 60.7
1433468750, 61.1
1434250000, 61.3
1435031250, 61.6
1435812500, 62.1
1436593750, 62.1
1437375000, 62.3
1438156250, 62.6
1438937500, 62.7
1439718750, 62.8
1440500000, 62.9
1441281250, 62.9
1442062500, 62.9
1442843750, 62.9
1443625000, 62.9
1444406250, 62.9
1445187500, 62.9
1445968750, 62.9
1446750000, 62.9
1447531250, 62.9
1448312500, 62.9
1449093750, 62.9
1449875000, 62.9
1450656250, 62.9
1451437500, 62.9
1452218750, 62.9
1453000000, 63.3
1453781250, 63.3
1454562500, 63.3
1455343750, 63.3
1456125000, 63.3
1456906250, 63.3
1457687500, 63.3
1458468750, 63.2
1459250000, 63.1
1460031250, 63.0
1460812500, 62.7
1461593750, 62.4
1462375000, 61.8
1463156250, 61.6
1463937500, 61.3
1464718750, 61.3
1465500000, 61.2
1466281250, 61.2
1467062500, 61.1
1467843750, 61.0
1468625000, 61.0
1469406250, 61.0
1470187500, 61.0
1470968750, 60.8
1471750000, 60.5
1472531250, 56.5
1473312500, 56.5
1474093750, 56.5
1474875000, 56.5
1475656250, 56.5
1476437500, 56.5
1477218750, 56.5
1478000000, 58.9
1478781250, 59.0
1479562500, 59.0
1480343750, 59.0
1481125000, 59.1
1481906250, 59.1
1482687500, 59.3
1483468750, 59.3
1484250000, 59.3
1485031250, 59.3
1485812500, 59.3
1486593750, 59.6
1487375000, 59.7
1488156250, 59.8
1488937500, 60.4
1489718750, 60.7
1490500000, 60.7
1491281250, 61.1
1492062500, 61.3
1492843750, 61.5
1493625000, 61.5
1494406250, 61.5
1495187500, 61.5
1495968750, 61.5
1496750000, 61.5
1497531250, 61.5
1498312500, 61.3
1499093750, 61.0
1499875000, 60.6
1500656250, 60.1
1501437500, 60.0
1502218750, 59.8
1503000000, 59.1
1503781250, 58.8
1504562500, 58.3
1505343750, 58.1
1506125000, 57.8
1506906250, 57.4
1507687500, 57.2
1508468750, 56.6
1509250000, 56.5
1510031250, 56.5
1510812500, 56.1
1511593750, 56.0
1512375000, 56.0
1513156250, 56.0
1513937500, 56.0
1514718750, 56.0
1515500000, 56.0
1516281250, 56.0
1517062500, 56.1
1517843750, 56.3
1518625000, 56.5
1519406250, 56.8
1520187500, 56.8
1520968750, 56.8
1521750000, 56.8
1522531250, 56.8
1523312500, 56.8
1524093750, 56.8
1524875000, 56.8
1525656250, 56.3
1526437500, 56.0
1527218750, 56.0
1528000000, 55.9
1528781250, 55.4
1529562500, 54.8
1530343750, 54.3
1531125000, 53.8
1531906250, 53.2
1532687500, 53.1
1533468750, 52.7
1534250000, 52.6
1535031250, 51.9
1535812500, 51.8
1536593750, 51.7
1537375000, 51.7
1538156250, 51.2
1538937500, 51.1
1539718750, 50.9
1540500000, 50.9
1541281250, 50.8
1542062500, 50.8
1542843750, 50.8
1543625000, 50.7
1544406250, 50.7
1545187500, 50.7
1545968750, 50.8
1546750000, 50.8
1547531250, 50.8
1548312500, 51.0
1549093750, 51.0
1549875000, 51.0
1550656250, 51.3
1551437500, 51.3
1552218750, 51.4
1553000000, 51.4
1553781250, 51.4
1554562500, 51.4
1555343750, 51.4
1556125000, 51.0
1556906250, 51.0
1557687500, 51.0
1558468750, 50.9
1559250000, 50.9
1560031250, 50.5
1560812500, 50.1
1561593750, 50.1
1562375000, 49.7
1563156250, 49.4
1563937500, 49.1
1564718750, 48.6
1565500000, 48.5
1566281250, 48.4
1567062500, 48.4
1567843750, 48.4
1568625000, 48.4
1569406250, 48.4
1570187500, 48.4
1570968750, 48.4
1571750000, 48.4
1572531250, 48.4
1573312500, 48.7
1574093750, 48.8
1574875000, 48.8
1575656250, 48.8
1576437500, 48.9
1577218750, 49.1
1578000000, 49.4
1578781250, 49.4
1579562500, 49.4
1580343750, 49.4
1581125000, 49.4
1581906250, 49.4
1582687500, 49.4
1583468750, 49.1
1584250000, 49.0
1585031250, 48.7
1585812500, 48.7
1586593750, 48.6
1587375000, 48.6
1588156250, 48.6
1588937500, 48.5
1589718750, 48.5
1590500000, 48.3
1591281250, 48.3
1592062500, 48.1
1592843750, 48.1
1593625000, 48.0
1594406250, 48.0
1595187500, 48.0
1595968750, 48.0
1596750000, 48.0
1597531250, 48.1
1598312500, 48.1
1599093750, 48.1
1599875000, 48.2
1600656250, 48.4
1601437500, 48.5
1602218750, 48.7
1603000000, 48.9
1603781250, 48.9
1604562500, 49.7
1605343750, 49.8
1606125000, 50.3
1606906250, 50.4
1607687500, 50.7
1608468750, 50.8
1609250000, 51.0
1610031250, 51.1
1610812500, 51.3
1611593750, 51.4
1612375000, 51.5
1613156250, 51.6
1613937500, 51.7
1614718750, 51.7
1615500000, 51.7
1616281250, 51.7
1617062500, 51.8
1617843750, 51.8
1618625000, 51.8
1619406250, 51.8
1620187500, 51.8
1620968750, 51.8
1621750000, 51.8
1622531250, 51.8
1623312500, 51.8
1624093750, 51.9
1624875000, 51.9
1625656250, 52.0
1626437500, 52.1
1627218750, 52.4
1628000000, 52.5
1628781250, 52.5
1629562500, 52.8
1630343750, 53.0
1631125000, 53.2
1631906250, 53.3
1632687500, 53.7
1633468750, 54.0
1634250000, 54.2
1635031250, 54.6
1635812500, 54.9
1636593750, 55.1
1637375000, 55.3
1638156250, 55.7
1638937500, 56.0
1639718750, 56.2
1640500000, 56.5
1641281250, 56.7
1642062500, 56.7
1642843750, 56.7
1643625000, 56.7
1644406250, 56.8
1645187500, 56.9
1645968750, 56.9
1646750000, 57.0
1647531250, 57.0
1648312500, 57.0
1649093750, 57.0
1649875000, 57.0
1650656250, 57.0
1651437500, 57.0
1652218750, 57.1
1653000000, 57.1
1653781250, 57.1
1654562500, 57.1
1655343750, 57.1
1656125000, 57.1
1656906250, 57.1
1657687500, 57.3
1658468750, 57.3
1659250000, 57.3
1660031250, 57.4
1660812500, 57.7
1661593750, 57.9
1662375000, 58.2
1663156250, 58.5
1663937500, 58.7
1664718750, 59.0
1665500000, 59.3
1666281250, 59.3
1667062500, 59.3
1667843750, 59.3
1668625000, 59.3
1669406250, 59.3
1670187500, 59.3
1670968750, 59.0
1671750000, 58.7
1672531250, 57.6
1673312500, 55.9
1674093750, 53.0
1674875000, 53.0
1675656250, 53.0
1676437500, 53.0
1677218750, 53.0
1678000000, 53.0
1678781250, 53.0
1679562500, 54.8
1680343750, 58.4
1681125000, 60.5
1681906250, 62.0
1682687500, 62.6
1683468750, 63.1
1684250000, 63.2
1685031250, 63.6
1685812500, 63.8
1686593750, 64.1
1687375000, 64.2
1688156250, 64.5
1688937500, 64.9
1689718750, 65.3
1690500000, 65.4
1691281250, 65.9
1692062500, 66.2
1692843750, 66.9
1693625000, 67.5
1694406250, 67.9
1695187500, 68.3
1695968750, 68.6
1696750000, 69.2
1697531250, 69.5
1698312500, 69.9
1699093750, 70.0
1699875000, 70.2
1700656250, 70.2
1701437500, 70.2
1702218750, 70.2
1703000000, 70.2
1703781250, 70.2
1704562500, 70.2
1705343750, 69.7
1706125000, 69.4
1706906250, 69.2
1707687500, 69.2
1708468750, 69.0
1709250000, 68.6
1710031250, 68.1
1710812500, 67.5
1711593750, 67.3
1712375000, 67.1
1713156250, 66.8
1713937500, 66.5
1714718750, 66.4
1715500000, 66.1
1716281250, 66.1
1717062500, 66.1
1717843750, 66.1
1718625000, 66.1
1719406250, 66.1
1720187500, 66.1
1720968750, 66.1
1721750000, 66.2
1722531250, 66.6
1723312500, 66.8
1724093750, 67.2
1724875000, 67.5
1725656250, 68.0
1726437500, 68.4
1727218750, 68.5
1728000000, 68.5
1728781250, 68.5
1729562500, 68.5
1730343750, 68.5
1731125000, 68.5
1731906250, 68.5
1732687500, 68.3
1733468750, 67.9
1734250000, 67.6
1735031250, 67.0
1735812500, 66.6
1736593750, 66.1
1737375000, 65.6
1738156250, 64.8
1738937500, 64.4
1739718750, 64.0
1740500000, 63.4
1741281250, 63.1
1742062500, 62.6
1742843750, 62.1
1743625000, 61.9
1744406250, 61.9
1745187500, 61.9
1745968750, 61.9
1746750000, 61.9
1747531250, 61.9
1748312500, 61.9
1749093750, 61.9
1749875000, 61.9
1750656250, 62.0
1751437500, 62.2
1752218750, 62.3
1753000000, 62.5
1753781250, 62.5
1754562500, 62.5
1755343750, 62.5
1756125000, 62.5
1756906250, 62.5
1757687500, 62.5
1758468750, 62.5
1759250000, 62.1
1760031250, 61.9
1760812500, 61.3
1761593750, 61.1
1762375000, 60.8
1763156250, 60.1
1763937500, 59.7
1764718750, 59.2
1765500000, 58.5
1766281250, 58.1
1767062500, 57.3
1767843750, 57.1
1768625000, 56.6
1769406250, 56.0
1770187500, 55.5
1770968750, 55.1
1771750000, 54.7
1772531250, 54.4
1773312500, 53.9
1774093750, 53.5
1774875000, 53.1
1775656250, 52.7
1776437500, 52.4
1777218750, 52.3
1778000000, 52.0
1778781250, 51.8
1779562500, 51.1
1780343750, 50.7
1781125000, 50.6
1781906250, 50.1
1782687500, 49.6
1783468750, 49.0
1784250000, 48.5
1785031250, 47.9
1785812500, 47.4
1786593750, 46.6
1787375000, 46.2
1788156250, 45.6
1788937500, 44.7
1789718750, 44.1
1790500000, 43.3
1791281250, 42.4
1792062500, 41.6
1792843750, 40.9
1793625000, 39.9
1794406250, 38.8
1795187500, 38.0
1795968750, 37.1
1796750000, 36.1
1797531250, 35.0
1798312500, 34.1
1799093750, 33.1
1799875000, 32.1
1800656250, 31.2
1801437500, 30.5
1802218750, 29.7
1803000000, 28.7
1803781250, 28.0
1804562500, 27.5
1805343750, 26.9
1806125000, 26.5
1806906250, 26.1
1807687500, 25.6
1808468750, 25.5
1809250000, 25.3
1810031250, 25.3
1810812500, 25.3
1811593750, 25.3
1812375000, 25.3
1813156250, 25.3
1813937500, 25.3
1814718750, 25.3
1815500000, 25.5
1816281250, 25.6
1817062500, 25.6
1817843750, 25.8
1818625000, 25.8
1819406250, 25.8
1820187500, 25.9
1820968750, 26.0
1821750000, 26.1
1822531250, 26.1
1823312500, 26.1
1824093750, 26.1
1824875000, 26.1
1825656250, 26.2
1826437500, 26.2
1827218750, 26.2
1828000000, 26.2
1828781250, 26.3
1829562500, 26.3
1830343750, 26.3
1831125000, 26.5
1831906250, 26.5
1832687500, 26.8
1833468750, 27.0
1834250000, 27.2
1835031250, 27.4
1835812500, 27.6
1836593750, 28.0
1837375000, 28.3
1838156250, 28.7
1838937500, 29.2
1839718750, 29.4
1840500000, 29.8
1841281250, 30.4
1842062500, 30.7
1842843750, 31.0
1843625000, 31.6
1844406250, 31.9
1845187500, 32.2
1845968750, 32.6
1846750000, 32.7
1847531250, 33.1
1848312500, 33.1
1849093750, 33.5
1849875000, 33.7
1850656250, 33.7
1851437500, 34.0
1852218750, 34.1
1853000000, 34.2
1853781250, 34.2
1854562500, 34.3
1855343750, 34.3
1856125000, 34.3
1856906250, 34.4
1857687500, 34.4
1858468750, 34.6
1859250000, 34.6
1860031250, 34.7
1860812500, 34.7
1861593750, 34.8
1862375000, 35.1
1863156250, 35.2
1863937500, 35.3
1864718750, 35.5
1865500000, 35.7
1866281250, 36.0
1867062500, 36.2
1867843750, 36.4
1868625000, 36.9
1869406250, 37.2
1870187500, 37.7
1870968750, 38.0
1871750000, 38.2
1872531250, 38.6
1873312500, 39.1
1874093750, 39.4
1874875000, 39.7
1875656250, 40.0
1876437500, 40.5
1877218750, 40.6
1878000000, 40.7
1878781250, 40.8
1879562500, 40.9
1880343750, 41.1
1881125000, 41.1
1881906250, 41.1
1882687500, 41.1
1883468750, 41.1
1884250000, 41.1
1885031250, 41.1
1885812500, 41.1
1886593750, 41.1
1887375000, 41.1
1888156250, 41.1
1888937500, 41.1
1889718750, 41.0
1890500000, 41.0
1891281250, 40.9
1892062500, 40.9
1892843750, 40.9
1893625000, 40.9
1894406250, 40.9
1895187500, 41.0
1895968750, 41.0
1896750000, 41.0
1897531250, 41.1
1898312500, 41.3
1899093750, 41.4
1899875000, 41.8
1900656250, 42.1
1901437500, 42.5
1902218750, 42.8
1903000000, 43.0
1903781250, 43.2
1904562500, 43.4
1905343750, 43.8
1906125000, 44.1
1906906250, 44.3
1907687500, 44.3
1908468750, 44.3
1909250000, 44.3
1910031250, 44.3
1910812500, 44.3
1911593750, 44.3
1912375000, 44.2
1913156250, 44.0
1913937500, 43.6
1914718750, 43.6
1915500000, 43.3
1916281250, 43.1
1917062500, 43.0
1917843750, 42.7
1918625000, 42.6
1919406250, 42.3
1920187500, 42.1
1920968750, 42.0
1921750000, 41.9
1922531250, 41.7
1923312500, 41.5
1924093750, 41.5
1924875000, 41.5
1925656250, 41.5
1926437500, 41.5
1927218750, 41.5
1928000000, 41.5
1928781250, 41.7
1929562500, 41.8
1930343750, 41.9
1931125000, 42.0
1931906250, 42.4
1932687500, 42.5
1933468750, 42.6
1934250000, 42.7
1935031250, 42.9
1935812500, 42.9
1936593750, 42.9
1937375000, 42.9
1938156250, 42.9
1938937500, 42.9
1939718750, 42.9
1940500000, 42.4
1941281250, 42.1
1942062500, 41.7
1942843750, 41.3
1943625000, 40.9
1944406250, 40.7
1945187500, 40.3
1945968750, 40.0
1946750000, 39.6
1947531250, 39.4
1948312500, 39.0
1949093750, 38.7
1949875000, 38.6
1950656250, 38.5
1951437500, 38.1
1952218750, 37.7
1953000000, 37.6
1953781250, 37.4
1954562500, 37.3
1955343750, 37.3
1956125000, 37.0
1956906250, 37.0
1957687500, 36.9
1958468750, 36.7
1959250000, 36.6
